Time (s),Depth,Sonic_Velocity,AC,R64,RD,Amplitude,Instantaneous_freq,Amplitude_abs,Amplitude_roll_mean,Amplitude_energy
0.124,130.68120076157118,2142.4514758908344,,,,-736.3506,38.80455780029297,736.3506,-736.3505859375,542212.2
0.128,134.96831280067894,2144.610490347345,,,,-736.3506,210.3264617919922,736.3506,-736.3505859375,542212.2
0.132,139.25974499713664,2146.7716804601223,,,,-210.38574,31.160083770751953,210.38574,-561.0289713541666,44262.16
0.136,143.5555017306546,2148.9350484348133,,,,210.38574,38.127803802490234,210.38574,-368.17529296875,44262.16
0.14,147.8555873721167,2151.100596472621,,,,105.19238,80.95872497558594,105.19238,-273.5017578125,11065.4375
0.144,152.16000628360612,2153.2683267703155,,,,-420.77246,164.4940185546875,420.77246,-210.3861328125,177049.47
0.148,156.4687628184328,2155.4382415202485,,,,-315.5791,43.39753341674805,315.5791,-126.2318359375,99590.17
0.152,160.78186132115908,2157.6103429103673,,,,525.96387,35.71036148071289,525.96387,21.0380859375,276638.0
0.156,165.0993061276268,2159.7846331242263,,,,1577.8936,36.05916213989258,1577.8936,294.5396484375,2489748.0
0.16,169.42110205652372,2161.961114588546,,,,1472.7002,33.41019821166992,1472.7002,568.0412109375,2168845.8
0.164,173.74725305129363,2164.139789289266,,,,315.57812,30.541851043701172,315.57812,715.311328125,99589.555
0.168,178.07776340539215,2166.3206593885957,,,,-1051.9297,31.80474853515625,1051.9297,568.0412109375,1106556.1
0.172,182.41263771332683,2168.503727200357,,,,-1367.5078,34.8676872253418,1367.5078,189.346875,1870077.6
0.176,186.7518805906936,2170.6889950489885,,,,-420.77246,206.2960205078125,420.77246,-210.386328125,177049.47
0.18,191.09549580422518,2172.876464831441,,,,631.1572,70.67786407470703,631.1572,-378.694921875,398359.44
0.184,195.44348863595403,2175.066139207775,,,,631.1572,53.26361846923828,631.1572,-315.5791015625,398359.44
0.188,199.7958625491059,2177.258019922092,,,,-525.96484,34.09563446044922,525.96484,-210.3861328125,276639.03
0.192,204.1526229131618,2179.4521096784924,,,,-1998.665,28.973920822143555,1998.665,-336.617578125,3994662.0
0.196,208.51377327400354,2181.648410262704,,,,-2735.0156,223.59339904785156,2735.0156,-799.4662109375,7480310.5
0.2,212.87931865208913,2183.846924203059,,,,-2314.2441,25.18919563293457,2314.2441,-1388.546484375,5355726.0
0.204,217.1485768556609,2184.9149116141707,139.50199999999998,,,-631.1582,25.55750846862793,631.1582,-1641.0095703125,398360.7
0.208,226.54447560645926,7230.309341890767,42.157964126619966,,,1683.0859,24.65715217590332,1683.0859,-1199.1994140625,2832778.2
0.212,234.63741854539515,3799.8486856746226,80.21383709078839,0.12062581454605796,,3997.329,24.988136291503906,3997.329,-0.0005859375,15978640.0
0.216,239.48590704743427,1912.9273553271673,159.33695202303974,15.920229386447216,6.486229386447217,5154.449,26.959468841552734,5154.449,1577.8923828125,26568346.0
0.22,243.40849535633086,1881.7357213394923,161.97818848179378,16.14490278620007,6.503,3786.9443,27.27394676208496,3786.9443,2798.130078125,14340947.0
0.224,246.99399225425037,1752.4491110785239,173.9281337578756,14.85011628204025,6.266,105.19238,27.575305938720703,105.19238,2945.4001953125,11065.4375
0.228,250.5311137677899,1729.0075463260653,176.2861137677891,14.215110181273834,5.817999999999999,-4418.1016,28.573802947998047,4418.1016,1725.1626953125,19519622.0
0.232,253.9215757296784,1720.9835495734203,177.1080642979357,14.057472718904165,5.938866651324304,-7047.922,29.23751449584961,7047.922,-483.8875,49673204.0
0.236,257.4986056989576,1819.7949976169205,167.49139430104236,15.731762968822796,7.005,-5890.801,220.09388732910156,5890.801,-2692.9375,34701532.0
0.24,261.0547143312542,1776.6896061351918,171.5552369616145,14.429395722938002,6.2927185445609455,-1367.5078,30.39585304260254,1367.5078,-3723.8279296875,1870077.6
0.244,264.58046144141474,1706.9382518905638,178.56534317300168,12.791046144141243,6.027058407190959,4102.5195,31.06217384338379,4102.5195,-2924.3625,16830666.0
0.248,268.033051244377,1733.5423103092976,175.82816316464516,13.516415139130936,6.423330980807544,7363.5,31.721782684326172,7363.5,-568.0421875,54221132.0
0.252,271.61787996075634,1823.064638646817,167.191,14.963430396860312,7.005,6311.5703,31.062910079956055,6311.5703,2103.85625,39835920.0
0.256,275.21367742388617,1792.9700177209431,169.9990181367415,13.70095483372549,5.696501930680927,1683.0859,30.2143611907959,1683.0859,3618.63359375,2832778.2
0.26,278.65402110963856,1676.1947273107169,181.84050200817742,17.038183588638276,9.26983261715097,-4207.715,29.67863655090332,4207.715,3050.5921875,17704864.0
0.264,282.0115485440682,1605.0552922590834,189.90000000000006,23.57006558354257,8.143669272423839,-8099.8516,28.189699172973633,8099.8516,610.11796875,65607596.0
0.268,285.62815026988943,1920.1558265457256,158.73731957684922,21.371,8.592,-8415.43,222.8795166015625,8415.43,-2545.66796875,70819460.0
0.272,289.23756748073845,1797.3605689283067,169.58199999999994,21.385264845762403,9.853748489750904,-4838.871,26.845136642456055,4838.871,-4775.75625,23414674.0
0.276,292.817013176639,1723.636413599248,176.8426462819871,23.04998682335967,8.305370423792503,1051.9287,26.001676559448242,1051.9287,-4901.9876953125,1106554.0
0.28,296.4342895098761,1648.7604915475847,184.86923189235986,25.390799202925574,9.90525019692288,6732.3438,25.434661865234375,6732.3438,-2713.9759765625,45324452.0
0.284,299.7657027779204,1807.2482189387922,168.65425147193767,23.895831250321784,10.028100278306932,9782.9375,25.12605857849121,9782.9375,862.5818359375,95705864.0
0.288,303.361733624422,1639.4500742270704,185.916,28.646494716152176,10.736999999999997,8941.395,24.34221649169922,8941.395,4333.9466796875,79948536.0
0.292,306.9207508907239,1800.362297636647,169.29941145490835,25.076897505965658,8.934223239303037,4944.0625,23.783870697021484,4944.0625,6290.5333984375,24443754.0
0.296,310.6877035666655,1724.9188654976942,176.70406019532126,26.424983714666904,11.590683260339903,-315.5791,23.39711570739746,315.5791,6017.0318359375,99590.17
0.3,314.22332396912543,1830.11062550227,166.54735206175104,21.936136891732698,8.753,-4312.9062,22.312374114990234,4312.9062,3807.9818359375,18601160.0
0.304,317.9818356558961,1839.8742372152885,165.66945651227564,20.63427342623587,8.887210475670578,-5785.6094,20.624553680419922,5785.6094,694.2724609375,33473276.0
0.308,321.78533008641074,1976.852600883758,154.18461374392004,19.93553793244849,9.10893885309947,-5154.449,231.40069580078125,5154.449,-2124.8962890625,26568346.0
0.312,325.712108025705,2008.5791996885216,151.749500964856,19.780452963084407,9.063779597075342,-3681.752,14.679793357849121,3681.752,-3850.0591796875,13555297.0
0.316,329.5865421229026,1997.088384356749,152.62221882457018,20.790164683782848,9.772753331838645,-2629.8232,9.787281036376953,2629.8232,-4312.9080078125,6915970.5
0.32,333.4717844278241,1885.9752249186333,161.614,22.983999999999998,10.879854613461692,-1998.665,9.505744934082031,1998.665,-3850.059765625,3994662.0
0.324,337.32286946268306,1927.1119959731896,158.1645306922337,20.492714151942284,8.753,-1051.9297,14.73801040649414,1051.9297,-2903.323828125,1106556.1
0.328,341.23673739769185,1936.098583497427,157.43000000000004,18.75822413830015,8.917,631.1572,21.146413803100586,631.1572,-1746.2025390625,398359.44
0.332,345.10608243561575,1951.2103457215685,156.2107919062633,20.793646267027576,8.92715766747246,2314.2432,26.852447509765625,2314.2432,-547.003515625,5355721.5
0.336,348.9742867847196,1932.9687824293514,157.6861036241839,23.766228603541613,9.784999999999998,2629.8213,34.235774993896484,2629.8213,504.925390625,6915960.0
0.34,352.9019253720506,1958.4272076966365,155.6350938816664,18.17784358329939,8.277517463518329,841.54297,42.37490463256836,841.54297,1072.9669921875,708194.56
0.344,356.7788387754967,1919.605371547625,158.7826775509968,18.025153551019937,8.434,-2103.8584,43.88243865966797,2103.8584,862.58125,4426220.0
0.348,360.67441195992564,1944.6849038411558,156.7350962799094,18.185047043206204,8.917,-4312.9062,211.7818145751953,4312.9062,-126.2314453125,18601160.0
0.352,364.4768181225362,1870.3766998627993,162.96186806384875,17.349750032604618,7.86407735987053,-3366.1729,32.5787467956543,3366.1729,-1262.3146484375,11331120.0
0.356,368.2744139316717,1940.3770970466398,157.08291627597023,15.784257870063772,7.545000000000001,841.54297,28.426097869873047,841.54297,-1619.9703125,708194.56
0.36,371.85359678585286,1642.9672592416912,185.518,14.49139919646408,7.269999999999997,6732.3438,27.04640769958496,6732.3438,-441.81015625,45324452.0
0.364,375.23311252017993,1642.9672592416912,185.518,14.910913882869737,7.829999999999999,11045.254,26.585693359375,11045.254,2188.0123046875,121997630.0
0.368,378.51387413910754,1664.6698947736352,183.09939046317703,15.616028810262508,7.974277482782143,10729.672,25.56853675842285,10729.672,5196.5279296875,115125860.0
0.372,381.96944973316687,1772.1189748007398,171.99987071963744,15.458664128079338,7.831000000000002,5364.836,25.162517547607422,5364.836,6942.7296875,28781464.0
0.376,385.3155611413849,1619.8133968297782,188.16993334272624,14.658153097789057,7.708408043599448,-3155.787,25.18634605407715,3155.787,6143.263671875,9958992.0
0.38,388.52291440637214,1596.680915262761,190.89600000000002,13.212334779922369,7.135999999999998,-10729.676,25.002513885498047,10729.676,2650.859765625,115125944.0
0.384,391.72207523758874,1590.0424115643239,191.69300000000004,12.521298057020807,7.3759776768820915,-13780.27,24.924148559570312,13780.27,-2314.244921875,189895820.0
0.388,394.9604194775804,1659.0012246564165,183.72499999999994,11.666893781365223,5.926999999999999,-11150.445,225.12841796875,11150.445,-6690.268359375,124332430.0
0.392,398.1596089966671,1573.6892376797382,193.68499999999997,13.131921799332659,7.215876055528809,-4733.6797,24.71295738220215,4733.6797,-8709.971484375,22407724.0
0.396,401.5437155813044,1840.4809767779511,165.78852091246978,21.904911888135057,10.208470197762379,2103.8574,24.729598999023438,2103.8574,-7658.042578125,4426216.0
0.4,405.1697697483572,1693.897965988663,179.94000000000003,22.963417428339824,7.865265392265021,6416.7656,24.761634826660156,6416.7656,-4228.754296875,41174880.0
0.404,409.0123123754037,1820.897305693292,167.38999999999993,22.561017843887093,9.158534480907257,7047.922,24.275548934936523,7047.922,-63.116015625,49673204.0
0.408,413.0101719400292,1953.8766564590499,155.9990390046587,22.177000000000003,10.32567331394529,5049.258,23.830474853515625,5049.258,3176.824609375,25495004.0
0.412,417.15956035297114,2095.714072434897,145.43994979519104,18.54217585881317,8.819321021134,2103.8574,23.4168701171875,2103.8574,4544.33203125,4426216.0
0.416,421.3785470596154,2150.4823397637415,141.7356913513574,18.50842905880761,9.605000000000002,0.0,20.524471282958984,0.0,4123.560546875,0.0
0.42,425.6579254381456,2142.0890990997327,142.29099999999997,18.36832285077253,9.427999999999999,-631.1582,13.149683952331543,631.1582,2713.97578125,398360.7
0.424,429.9029016812525,2036.6027221520635,149.66100000000003,18.01616067250255,9.968000000000002,-525.96484,1.0728329420089722,525.96484,1199.1984375,276639.03
0.428,434.053017730431,2083.7463681421978,146.27500000000003,17.46116804965282,8.207117127556232,-736.3506,2.5160186290740967,736.3506,42.0767578125,542212.2
0.432,438.252941715772,2047.4926947234073,148.865,16.31599990831871,8.764060576259988,-1683.0869,14.06872844696045,1683.0869,-715.312109375,2832781.5
0.436,442.2505465514819,1857.5640393370713,164.10574143952715,14.082814172496146,7.269999999999997,-2945.4014,20.46000099182129,2945.4014,-1304.3923828125,8675389.0
0.44,445.6240339683344,1663.0392968400097,183.27893206333954,12.88478980950093,6.749,-3471.3662,226.29798889160156,3471.3662,-1872.433984375,12050383.0
0.444,448.9426468485877,1645.9903967640512,185.1781046167374,12.536735315140998,6.625,-2419.4375,25.076459884643555,2419.4375,-2251.128515625,5853678.0
0.448,452.3949775561603,1722.6960376446573,176.93201067353456,16.363562294356285,9.09253815452043,105.19238,25.89920425415039,105.19238,-2082.819921875,11065.4375
0.452,456.3761419999852,2030.5457295350518,150.10747742002116,16.65841111999617,9.084000000000001,2735.0146,24.930908203125,2735.0146,-1199.199609375,7480305.0
0.456,460.4716048105794,2033.8847331860866,149.86099999999993,16.36541965604116,7.977000000000003,4312.9062,23.245758056640625,4312.9062,252.4619140625,18601160.0
0.46,464.42254964229704,1903.6962652172003,160.10974757635327,21.37312748211499,10.112832168899354,4418.0977,22.68576431274414,4418.0977,1830.3546875,19519586.0
0.464,468.30458511494146,1921.7626877974067,158.60867097946436,23.764275106896783,10.155,3155.7861,20.492568969726562,3155.7861,2945.3994140625,9958986.0
0.468,472.0666180822215,1907.1336057214014,159.82099999999997,21.357921293195503,9.084000000000001,1577.8936,16.974119186401367,1577.8936,3239.9396484375,2489748.0
0.472,475.94814350179405,1968.5746775303726,154.83309257216425,17.778407175089775,8.434,105.19238,14.690000534057617,105.19238,2713.9751953125,11065.4375
0.476,479.9570286539791,2028.4974610505865,150.259,18.464931374912844,9.084000000000001,-1262.3154,13.254053115844727,1262.3154,1598.930859375,1593440.2
0.48,483.9355071780734,1979.0208052436342,154.01768922200407,17.60124641096251,8.535898658641537,-2735.0156,13.290627479553223,2735.0156,168.308203125,7480310.5
0.484,488.06762656703677,1991.0451929547573,153.08578030383532,15.806769623911553,8.126000000000001,-4418.1016,14.857690811157227,4418.1016,-1346.4693359375,19519622.0
0.488,492.03850282235504,2009.85143716247,151.653,15.897090959600465,8.653989543990443,-5890.801,16.73081398010254,5890.801,-2840.208203125,34701532.0
0.492,496.03833911447975,2026.6684462716582,150.40857274063345,15.324996531312582,8.03412528057376,-6416.7656,231.61691284179688,6416.7656,-4144.5998046875,41174880.0
0.496,500.1942901403882,2089.333074322776,145.88387960627145,14.629399690173189,7.977000000000003,-5049.258,20.47374725341797,5049.258,-4901.98828125,25495004.0
0.5,504.3567358773773,2076.4865813412566,146.78647175476087,15.113588121987931,8.366940609939657,-1472.7012,21.809816360473633,1472.7012,-4649.525390625,2168848.8
0.504,508.5160169691316,2020.8860649402934,150.82496606173714,13.45319490926057,7.025982229562173,3260.9795,22.842504501342773,3260.9795,-3113.7091796875,10633987.0
0.508,512.625540373169,2112.594000741459,144.27844322586094,14.548787826121675,7.977000000000003,7258.3086,24.259960174560547,7258.3086,-483.8873046875,52683044.0
0.512,516.8760075028833,2102.9961118517776,144.9365248672538,14.10612090034623,7.269999999999997,8310.238,25.143165588378906,8310.238,2461.5134765625,69060060.0
0.516,521.091124259502,2160.7750739030375,141.06058579541033,14.404869822280322,7.474343194626,5785.6055,26.493221282958984,5785.6055,4628.4861328125,33473230.0
0.52,525.3125398713029,2067.9145617920717,147.39513696829135,14.837469697805934,7.977000000000003,841.54297,28.570241928100586,841.54297,5091.3349609375,708194.56
0.524,529.5351217846609,2095.323987914774,145.4673229455749,13.691995060324501,7.63993646710918,-3471.3662,31.21417808532715,3471.3662,3744.8658203125,12050383.0
0.528,533.7277917484745,2099.6378661288836,145.16811092359706,14.953997485275053,7.545000000000001,-4628.4883,213.0915985107422,4628.4883,1367.5064453125,21422904.0
0.532,537.9428394699306,2080.915384300286,146.47399999999996,12.432301266461065,6.876,-1788.2793,44.235660552978516,1788.2793,-652.1970703125,3197942.8
0.536,542.0760542384224,2080.915384300286,146.47399999999996,12.074239457615773,6.625,2945.4014,43.56151580810547,2945.4014,-1220.237890625,8675389.0
0.54,546.2465169953268,2109.605348763168,144.482,12.693065044112785,7.135999999999998,6416.7656,36.330772399902344,6416.7656,-105.193359375,41174880.0
0.544,550.4240723490457,2078.878604502927,146.6179526472903,11.862537571795986,6.989352973120617,5890.801,31.11545181274414,5890.801,1767.2400390625,34701532.0
0.548,554.60083355987,2112.514987905714,144.28299999999996,11.980908308414213,6.876,946.73535,27.78708267211914,946.73535,2882.284765625,896307.8
0.552,558.7601207329815,2062.9624024810787,147.74875853403466,12.193280891098393,7.4060000000000015,-6101.1875,26.071571350097656,6101.1875,2019.703125,37224490.0
0.556,562.9889013944567,2115.108842887447,144.10608622503142,12.99088563744129,7.005,-11571.219,25.05860710144043,11571.219,-883.6208984375,133893100.0
0.56,567.1913405610858,2120.545684635575,143.73678344473942,11.393268112216074,6.141214834020808,-12623.148,226.09884643554688,12623.148,-4691.6037109375,159343870.0
0.564,571.4551024762819,2132.541264968571,142.92916673596204,13.702999786622158,7.135999999999998,-9046.59,23.045286178588867,9046.59,-7679.0818359375,81840780.0
0.568,575.5689416450284,2014.7264845313723,151.28605835497044,14.475136498701774,7.686000000000003,-2735.0156,22.011005401611328,2735.0156,-8415.43203125,7480310.5
0.572,579.7073185037202,2100.909842845327,145.07999999999998,13.674780444888555,7.260193205022002,3681.751,20.952850341796875,3681.751,-6458.8443359375,13555290.0
0.576,583.9334747449246,2103.324296455986,144.91347474492338,14.280131512778702,7.686000000000003,8415.43,20.10732650756836,8415.43,-2461.5146484375,70819460.0
0.58,588.0257620090243,1969.06073507408,154.79505681396898,14.585512314224058,7.135999999999998,10729.672,19.25037384033203,10729.672,2209.0494140625,115125860.0
0.584,592.1695136939298,2173.710004480773,140.2213354981742,12.117572945911089,6.384,10624.48,19.3076114654541,10624.48,6143.2634765625,112879580.0
0.588,596.4474632626778,2127.19925743438,143.287,11.321608816957605,6.322006649958443,8099.8516,19.33922004699707,8099.8516,8310.2369140625,65607596.0
0.592,600.5832790757325,1990.2487881950926,153.1470088728938,11.17649511681613,6.047363717588541,3892.1377,19.38292121887207,3892.1377,8352.3142578125,15148736.0
0.596,604.776777790997,2174.8722617075186,140.14621219590887,11.490104448940189,6.720204460840687,-1157.1221,19.946935653686523,1157.1221,6437.80390625,1338931.5
0.6,609.0203603340506,2152.924714555851,141.57503412952332,10.521221620043065,6.0379999999999985,-5470.0312,19.74799156188965,5470.0312,3197.86328125,29921242.0
0.604,613.3141781673326,2141.2419688174778,142.3474291060047,10.840022584859044,5.926999999999999,-7994.66,19.370092391967773,7994.66,-525.96484375,63914590.0
0.608,617.626523318154,2153.352512218128,141.54678140312745,10.930186372282831,5.817999999999999,-8415.43,230.892822265625,8415.43,-3829.02109375,70819460.0
0.612,621.9465275484466,2172.5030114255983,140.299,11.0069305509689,5.760784476836054,-7047.922,18.863636016845703,7047.922,-6017.0330078125,49673204.0
0.616,626.2313602126987,2073.3349007810875,147.00959317673437,11.322727957460737,5.892817368161009,-4312.9062,19.518470764160156,4312.9062,-6648.18984375,18601160.0
0.62,630.3742833412126,2146.642501058662,141.98939053143457,10.695914831521318,5.790483175096475,-525.96484,20.97905158996582,525.96484,-5659.3765625,276639.03
0.624,634.58644319309,2061.473083200044,147.85544319309315,10.200406704207204,5.107999999999999,3471.3662,22.727890014648438,3471.3662,-3366.1712890625,12050383.0
0.628,638.8049208103339,2160.6556502257185,141.0724602587946,10.160523756897982,5.502000000000001,6311.5703,24.742708206176758,6311.5703,-420.7712890625,39835920.0
0.632,643.0285648126209,2069.6539033482495,147.271,9.880285185009757,5.204,6521.957,26.97831153869629,6521.957,2293.2044921875,42535924.0
0.636,647.0622746608992,2018.4508049223377,151.00714684961133,10.286227466090168,5.502000000000001,3681.751,28.647335052490234,3681.751,3892.1359375,13555290.0
0.64,651.297665682415,2166.357491630951,140.69700000000006,9.961116715878928,5.502000000000001,-841.54395,30.278160095214844,841.54395,3829.0201171875,708196.2
0.644,655.6315323860755,2231.8991372692485,136.56631311702776,9.301729857911438,4.921999999999999,-4733.6797,32.298484802246094,4733.6797,2188.0109375,22407724.0
