Time (s),Amplitude,Instantaneous_freq,Amplitude_abs,Amplitude_roll_mean,Amplitude_energy
0.325,426.35986328124994,107.26545810699463,426.35986328124994,85.27197265624999,181782.73301720613
0.326,852.7197265624999,89.53020668029785,852.7197265624999,255.81591796874994,727130.9320688245
0.327,1279.07958984375,71.79495525360107,1279.07958984375,511.6318359375,1636044.5971548557
0.328,1705.439453125,54.0597038269043,1705.439453125,852.7197265625,2908523.728275299
0.329,1630.199462890625,51.01872634887695,1630.199462890625,1178.759619140625,2657550.2888088822
0.33,1554.95947265625,47.97774887084961,1554.95947265625,1404.479541015625,2417898.961603403
0.331,1479.719482421875,44.936771392822266,1479.719482421875,1529.8794921875,2189569.7466588616
0.332,1404.4794921875,41.89579391479492,1404.4794921875,1554.95947265625,1972562.6439752579
0.333,1078.439453125,38.217909812927246,1078.439453125,1429.55947265625,1163031.654056549
0.334,752.3994140625,34.54002571105957,752.3994140625,1253.999462890625,566104.8782815933
0.335,426.359375,30.862141609191895,426.359375,1028.279443359375,181782.31665039062
0.336,100.3193359375,27.18425750732422,100.3193359375,752.3994140625,10063.969162940979
0.337,-225.720703125,26.401342391967773,225.720703125,426.359375,50949.835819244385
0.338,-551.7607421875,25.618427276611328,551.7607421875,100.3193359375,304439.91661930084
0.339,-877.80078125,24.835512161254883,877.80078125,-225.720703125,770534.2115631104
0.34,-1203.8408203125,24.052597045898438,1203.8408203125,-551.7607421875,1449232.720650673
0.341,-1354.320800781252,23.144940376281724,1354.320800781252,-842.6887695312504,1834184.8314287718
0.342,-1504.800781250004,22.237283706665014,1504.800781250004,-1098.5047851562513,2264425.3912506225
0.343,-1655.2807617187564,21.3296270370483,1655.2807617187564,-1319.2087890625025,2739954.400116226
0.34400000000000003,-1805.7607421875014,20.421970367431502,1805.7607421875014,-1504.8007812500027,3260771.858025556
0.34500000000000003,-1830.8408203125014,17.903227090835433,1830.8408203125014,-1630.200781250003,3351978.109322553
0.34600000000000003,-1855.9208984375014,15.384483814239363,1855.9208984375014,-1730.520800781253,3444442.3812570623
0.34700000000000003,-1881.0009765625014,12.865740537643294,1881.0009765625014,-1805.7608398437521,3538164.673829084
0.34800000000000003,-1906.0810546875055,10.346997261047333,1906.0810546875055,-1855.9208984375023,3633144.9870386333
0.34900000000000003,-2006.4011230468805,9.812482595443695,2006.4011230468805,-1896.0489746093779,4025645.466563783
0.35000000000000003,-2106.7211914062555,9.277967929840058,2106.7211914062555,-1951.2250488281286,4438274.178320193
0.35100000000000003,-2207.0412597656305,8.74345326423642,2207.0412597656305,-2021.4491210937547,4871031.122307861
0.352,-2307.361328125,8.208938598632812,2307.361328125,-2106.7211914062545,5323916.298526764
0.353,-2508.001220703125,65.13333892822266,2508.001220703125,-2227.105224609378,6290070.123048365
0.354,-2708.64111328125,122.0577392578125,2708.64111328125,-2367.5532226562523,7336736.680557489
0.355,-2909.281005859375,178.98213958740234,2909.281005859375,-2528.065185546876,8463915.971054137
0.356,-3109.9208984375,235.9065399169922,3109.9208984375,-2708.64111328125,9671607.994538307
0.357,-3034.680908203125,182.62382078170776,3034.680908203125,-2854.105029296875,9209288.214612544
0.358,-2959.44091796875,129.34110164642334,2959.44091796875,-2944.39296875,8758290.546947718
0.359,-2884.200927734375,76.05838251113892,2884.200927734375,-2979.504931640625,8318614.991543829
0.36,-2808.9609375,22.775663375854492,2808.9609375,-2959.44091796875,7890261.548400879
0.361,-2131.80078125,23.643670558929443,2131.80078125,-2763.81689453125,4544574.57093811
0.362,-1454.640625,24.511677742004395,1454.640625,-2447.808837890625,2115979.3479003906
0.363,-777.48046875,25.379684925079346,777.48046875,-2011.416748046875,604475.8792877197
0.364,-100.3203125,26.247692108154297,100.3203125,-1454.640625,10064.165100097656
0.365,1003.19921875,26.962507247924805,1003.19921875,-692.20859375,1006408.6725006104
0.366,2106.71875,27.677322387695312,2106.71875,155.4953125,4438263.8916015625
0.367,3210.23828125,28.39213752746582,3210.23828125,1088.47109375,10305629.822402954
0.368,4313.7578125,29.106952667236328,4313.7578125,2106.71875,18608506.464904785
0.369,5041.078125,29.642755031585693,5041.078125,3134.9984375,25412468.662353516
0.37,5768.3984375,30.17855739593506,5768.3984375,4088.03828125,33274420.53375244
0.371,6495.71875,30.714359760284424,6495.71875,4965.83828125,42194362.07910156
0.372,7223.0390625,31.25016212463379,7223.0390625,5768.3984375,52172293.29840088
0.373,6821.7587890625,31.57871389389038,6821.7587890625,6269.9986328125,46536392.97615147
0.374,6420.478515625,31.907265663146973,6420.478515625,6545.8787109375,41222544.3696022
0.375,6019.1982421875,32.235817432403564,6019.1982421875,6596.038671875,36230747.47875309
0.376,5617.91796875,32.564369201660156,5617.91796875,6420.478515625,31561002.303604126
0.377,4138.1982421875,32.99907970428467,4138.1982421875,5803.5103515625,17124684.691643715
0.378,2658.478515625,33.43379020690918,2658.478515625,4970.854296875,7067508.018039703
0.379,1178.7587890625,33.86850070953369,1178.7587890625,3922.5103515625,1389472.2827920914
0.38,-300.9609375,34.3032112121582,300.9609375,2658.478515625,90577.4859008789
0.381,-1830.8408203125,34.60624980926514,1830.8408203125,1168.7267578125,3351978.109322548
0.382,-3360.720703125,34.90928840637207,3360.720703125,-331.05703125,11294443.644412994
0.383,-4890.6005859375,35.212327003479004,4890.6005859375,-1840.8728515625,23917974.09117222
0.384,-6420.48046875,35.51536560058594,6420.48046875,-3360.720703125,41222569.44960022
0.385,-6746.5205078125,80.19834518432617,6746.5205078125,-4649.8326171875,45515538.96233463
0.386,-7072.560546875,124.8813247680664,7072.560546875,-5698.1765625,50021112.6892128
0.387,-7398.6005859375,169.56430435180664,7398.6005859375,-6505.7525390625,54739290.63023472
0.388,-7724.640625,214.24728393554688,7724.640625,-7072.560546875,59670072.78540039
0.389,-6596.040771484375,169.60132122039795,6596.040771484375,-7107.672607421875,43507753.85908419
0.39,-5467.44091796875,124.95535850524902,5467.44091796875,-6851.856689453125,29892910.191478968
0.391,-4338.841064453125,80.3093957901001,4338.841064453125,-6305.11279296875,18825541.782584727
0.392,-3210.2412109375,35.66343307495117,3210.2412109375,-5467.44091796875,10305648.632401466
0.393,-1504.8010253906252,35.667174339294434,1504.8010253906252,-4223.472998046875,2264426.126016677
0.394,200.63916015624955,35.670915603637695,200.63916015624955,-2864.13701171875,40256.072588205156
0.395,1906.079345703125,35.67465686798096,1906.079345703125,-1389.432958984375,3633138.472116053
0.396,3611.51953125,35.67839813232422,3611.51953125,200.63916015624983,13043073.32460022
0.397,4539.4794921875,35.70746326446533,4539.4794921875,1750.58330078125,20606874.059990883
0.398,5467.439453125,35.736528396606445,5467.439453125,3145.031396484375,29892894.1735878
0.399,6395.3994140625,35.76559352874756,6395.3994140625,4383.983447265625,40901133.66539097
0.4,7323.359375,35.79465866088867,7323.359375,5467.439453125,53631592.53540039
0.401,6796.6787109375,35.718305587768555,6796.6787109375,6104.4712890625,46194841.49971104
0.402,6269.998046875,35.64195251464844,6269.998046875,6450.575,39312875.507816315
0.403,5743.3173828125,35.56559944152832,5743.3173828125,6505.7505859375,32985694.559716225
0.404,5216.63671875,35.4892463684082,5216.63671875,6269.998046875,27213298.655410767
0.405,3887.397460937482,35.43022537231445,3887.397460937482,5582.805664062496,15111859.01930318
0.406,2558.158203124963,35.3712043762207,2558.158203124963,4735.101562499989,6544173.392215541
0.40700000000000003,1228.918945312445,35.31218338012695,1228.918945312445,3726.885742187478,1510241.774147852
0.40800000000000003,-100.32031250005569,35.25316238403321,100.32031250005569,2558.1582031249663,10064.16510010883
0.40900000000000003,-1103.5205078125555,35.41343212127686,1103.5205078125555,1294.1267578124557,1217757.5111628803
0.41000000000000003,-2106.7207031250555,35.573701858520515,2106.7207031250555,95.30312499994834,4438272.120975728
0.41100000000000003,-3109.9208984375555,35.73397159576417,3109.9208984375555,-1038.3126953125552,9671607.994538652
0.41200000000000003,-4113.121093749998,35.89424133301028,4113.121093749998,-2106.720703125044,16917765.13185118
0.41300000000000003,-4088.0410156249986,80.33758544922122,4088.0410156249986,-2904.2648437500325,16712079.34543227
0.41400000000000003,-4062.9609374999986,124.78092956543216,4062.9609374999986,-3496.152929687521,16507651.579650868
0.41500000000000004,-4037.8808593749986,169.2242736816431,4037.8808593749986,-3882.3849609375093,16304481.834506977
0.41600000000000004,-4012.800781249961,213.6676177978491,4012.800781249961,-4062.9609374999914,16102570.110000296
0.417,-3310.560791015625,169.32129859924316,3310.560791015625,-3902.4488769531163,10959812.75101
0.418,-2608.32080078125,124.97497940063477,2608.32080078125,-3606.504833984366,6803337.399788141
0.419,-1906.080810546875,80.62866020202637,1906.080810546875,-3175.1288085937417,3633144.056335032
0.42,-1203.8408203125,36.28234100341797,1203.8408203125,-2608.320800781242,1449232.720650673
0.421,-652.080810546875,36.28567409515381,652.080810546875,-1936.1768066406246,425209.3834834695
0.422,-100.32080078125,36.28900718688965,100.32080078125,-1294.1288085937497,10064.26306939125
0.423,451.439208984375,36.29234027862549,451.439208984375,-682.1768066406248,203797.3594084382
0.424,1003.19921875,36.29567337036133,1003.19921875,-100.32080078124982,1006408.6725006104
0.425,978.119140625,35.63621139526367,978.119140625,336.0711914062502,956717.0532569885
0.426,953.0390625,34.976749420166016,953.0390625,657.0951660156252,908283.4546508789
0.427,927.958984375,34.31728744506836,927.958984375,862.7511230468751,861107.8766822815
0.428,902.87890625,33.6578254699707,902.87890625,953.0390625000002,815190.3193511963
0.429,652.0791015625,42.60712718963623,652.0791015625,882.8150390625002,425207.1546945572
0.43,401.279296875,51.55642890930176,401.279296875,767.4470703125002,161025.07410049438
0.431,150.4794921875,60.505730628967285,150.4794921875,606.9351562500002,22644.077569007874
0.432,-100.3203125,69.45503234863281,100.3203125,401.27929687500017,10064.165100097656
0.433,-25.080322265625,57.18569326400757,25.080322265625,215.68745117187518,629.0225649476051
0.434,50.15966796875,44.916354179382324,50.15966796875,95.30356445312518,2515.9922907352448
0.435,125.39965820312497,32.64701509475708,125.39965820312497,40.127636718750175,15725.074277460568
0.436,200.6396484375,20.377676010131836,200.6396484375,50.15966796875018,40256.268525123596
0.437,777.4794921875,23.54704523086548,777.4794921875,225.7196289062502,604474.3607721329
0.438,1354.3193359375,26.71641445159912,1354.3193359375,501.5995605468752,1834180.863694191
0.439,1931.1591796875002,29.885783672332764,1931.1591796875002,877.7994628906251,3729375.777291299
0.44,2507.9990234375,33.055152893066406,2507.9990234375,1354.3193359375002,6290059.101563454
0.441,2984.518798828125,32.7291145324707,2984.518798828125,1911.095166015625,8907352.460558474
0.442,3461.03857421875,32.403076171875,3461.03857421875,2447.806982421875,11978788.012230158
0.443,3937.558349609375,32.0770378112793,3937.558349609375,2964.45478515625,15504365.756578505
0.444,4414.078125,31.750999450683594,4414.078125,3461.03857421875,19484085.693603516
0.445,4188.3583984375,31.244874000549316,4188.3583984375,3797.11044921875,17542346.07376194
0.446,3962.638671875,30.73874855041504,3962.638671875,3992.734423828125,15702505.243839264
0.447,3736.9189453125,30.23262310028076,3736.9189453125,4047.910498046875,13964563.203835487
0.448,3511.19921875,29.726497650146484,3511.19921875,3962.638671875,12328519.95375061
0.449,2482.919189453125,29.486361026763916,2482.919189453125,3576.406884765625,6164887.701354563
0.45,1454.63916015625,29.246224403381348,1454.63916015625,3029.663037109375,2115975.0862600803
0.451,426.359130859375,29.00608777999878,426.359130859375,2322.40712890625,181782.10846716166
0.452,-601.9208984375,28.76595115661621,601.9208984375,1454.6391601562502,362308.7679758072
0.453,-1881.000244140625,28.430703163146973,1881.000244140625,376.19926757812516,3538161.918457091
0.454,-3160.07958984375,28.095455169677734,3160.07958984375,-752.4004882812499,9986103.014147043
0.455,-4439.158935546875,27.760207176208496,4439.158935546875,-1931.160107421875,19706132.055045664
0.456,-5718.23828125,27.424959182739258,5718.23828125,-3160.07958984375,32698249.041152954
0.457,-6495.71875,27.105895519256592,6495.71875,-4338.83916015625,42194362.07910156
0.458,-7273.19921875,26.786831855773926,7273.19921875,-5417.278955078125,52899426.87562561
0.459,-8050.6796875,26.46776819229126,8050.6796875,-6395.398974609375,64813443.4307251
0.46,-8828.16015625,26.148704528808594,8828.16015625,-7273.19921875,77936411.74440002
0.461,-8677.6796875,75.95023918151855,8677.6796875,-7865.0875,75302124.7588501
0.462,-8527.19921875,125.75177383422852,8527.19921875,-8271.38359375,72713126.51625061
0.463,-8376.71875,175.55330848693848,8376.71875,-8492.0875,70169417.01660156
0.464,-8226.23828125,225.35484313964844,8226.23828125,-8527.19921875,67670996.25990295
0.465,-7348.4384765625,174.69717025756836,7348.4384765625,-8231.2548828125,53999548.043824196
0.466,-6470.638671875,124.03949737548828,6470.638671875,-7789.8466796875,41869164.821964264
0.467,-5592.8388671875,73.3818244934082,5592.8388671875,-7202.974609375,31279846.59432316
0.468,-4715.0390625,22.724151611328125,4715.0390625,-6470.638671875,22231593.36090088
0.46900000000000003,-3461.0395507812327,22.53123569488525,3461.0395507812327,-5517.598925781246,11978794.772071958
0.47000000000000003,-2207.040039062465,22.338319778442376,2207.040039062465,-4489.319238281239,4871025.734024847
0.47100000000000003,-953.0405273436977,22.145403861999505,953.0405273436977,-3385.799609374979,908286.2467595534
0.47200000000000003,300.9589843750682,21.95248794555663,300.9589843750682,-2207.0400390624654,90576.31027607255
0.47300000000000003,1529.8784179688182,21.752994060516347,1529.8784179688182,-958.0565429687018,2340527.973766774
0.47400000000000003,2758.797851562568,21.553500175476064,2758.797851562568,285.91093750005837,7610965.585786242
0.47500000000000003,3987.717285156318,21.35400629043578,3987.717285156318,1524.8624023438151,15901889.146334477
0.47600000000000003,5216.63671875005,21.154512405395504,5216.63671875005,2758.7978515625646,27213298.65541129
0.47700000000000004,6119.51757812505,21.081160545349118,6119.51757812505,3922.509570312561,37448495.38898148
0.47800000000000004,7022.39843750005,21.00780868530273,7022.39843750005,5021.013574218807,49314079.81500314
0.47900000000000004,7925.27929687505,20.934456825256344,7925.27929687505,6054.3098632813035,62810051.933476284
0.48,8828.16015625,20.86110496520996,8828.16015625,7022.398437500041,77936411.74440002
0.481,9129.1201171875,20.976510047912598,9129.1201171875,7804.895117187529,83340834.11403751
0.482,9430.080078125,21.091915130615234,9430.080078125,8467.00761718752,88926410.27985
0.483,9731.0400390625,21.20732021331787,9731.0400390625,9008.735937500009,94693140.2418375
0.484,10032.0,21.322725296020508,10032.0,9430.080078125,100641024.0
0.485,9605.6396484375,21.25404405593872,9605.6396484375,9585.5759765625,92268313.0556345
0.486,9179.279296875,21.185362815856934,9179.279296875,9595.6078125,84259168.410038
0.487,8752.9189453125,21.116681575775146,8752.9189453125,9460.1755859375,76613590.06321049
0.488,8326.55859375,21.04800033569336,8326.55859375,9179.279296875,69331578.01515198
0.489,7323.3583984375,21.09099245071411,7323.3583984375,8637.5509765625,53631578.231965065
0.49,6320.158203125,21.133984565734863,6320.158203125,7980.4546875,39944399.71252823
0.491,5316.9580078125,21.176976680755615,5316.9580078125,7207.9904296875,28270042.45684147
0.492,4313.7578125,21.219968795776367,4313.7578125,6320.158203125,18608506.464904785
0.493,3059.758056640625,21.19790506362915,3059.758056640625,5266.798095703125,9362119.365177214
0.494,1805.75830078125,21.175841331481934,1805.75830078125,4163.278076171875,3260763.0408403873
0.495,551.758544921875,21.153777599334717,551.758544921875,3009.59814453125,304437.49189430475
0.496,-702.2412109375,21.1317138671875,702.2412109375,1805.75830078125,493142.71833896637
0.497,-1780.680908203125,21.057674884796143,1780.680908203125,586.870556640625,3170824.496839106
0.498,-2859.12060546875,20.983635902404785,2859.12060546875,-596.90517578125,8174570.636615992
0.499,-3937.560302734375,20.909596920013428,3937.560302734375,-1745.568896484375,15504381.137669623
0.5,-5016.0,20.83555793762207,5016.0,-2859.12060546875,25160256.0
0.501,-5617.919921875,20.79685354232788,5617.919921875,-3842.25634765625,31561024.248600006
0.502,-6219.83984375,20.75814914703369,6219.83984375,-4730.088134765625,38686407.681900024
0.503,-6821.759765625,20.719444751739502,6821.759765625,-5522.615966796875,46536406.299900055
0.504,-7423.6796875,20.680740356445312,7423.6796875,-6219.83984375,55111020.1026001
0.505,-7448.759765625,72.99009323120117,7448.759765625,-6706.391796875,55484022.045993805
0.506,-7473.83984375,125.29944610595703,7473.83984375,-7077.57578125,55858282.010025024
0.507,-7498.919921875,177.6087989807129,7498.919921875,-7333.391796875,56233799.994693756
0.508,-7524.0,229.91815185546875,7524.0,-7473.83984375,56610576.0
0.509,-7072.5595703125,177.43327236175537,7072.5595703125,-7403.6158203125,50021098.875618935
0.51,-6621.119140625,124.94839286804199,6621.119140625,-7238.0876953125,43839218.67435074
0.511,-6169.6787109375,72.46351337432861,6169.6787109375,-6977.25546875,38064935.39619541
0.512,-5718.23828125,19.978633880615234,5718.23828125,-6621.119140625,32698249.041152954
0.513,-5041.078857421875,19.667001724243164,5041.078857421875,-6124.534912109375,25412476.046745837
0.514,-4363.91943359375,19.355369567871094,4363.91943359375,-5582.806884765625,19043792.822897196
0.515,-3686.760009765625,19.043737411499023,3686.760009765625,-4995.93505859375,13592199.369607031
0.516,-3009.6005859375,18.732105255126953,3009.6005859375,-4363.91943359375,9057695.686875343
0.517,-2382.6005859375,18.465046405792236,2382.6005859375,-3696.79189453125,5676785.552109718
0.518,-1755.6005859375,18.19798755645752,1755.6005859375,-3039.696240234375,3082133.4173440933
0.519,-1128.6005859375,17.930928707122803,1128.6005859375,-2392.632470703125,1273739.2825784683
0.52,-501.6005859375,17.663869857788086,501.6005859375,-1755.6005859375,251603.14781284332
0.521,-100.320556640625,17.091051816940308,100.320556640625,-1173.744580078125,10064.214084684849
0.522,300.95947265625,16.51823377609253,300.95947265625,-637.032568359375,90576.60418152809
0.523,702.239501953125,15.945415735244751,702.239501953125,-145.46455078125,493140.31810337305
0.524,1103.51953125,15.372597694396973,1103.51953125,300.95947265625,1217755.3558502197
0.525,1203.839599609375,13.499581813812256,1203.839599609375,642.047509765625,1449229.7815876603
0.526,1304.15966796875,11.626565933227539,1304.15966796875,922.9435546875,1700832.4395563602
0.527,1404.479736328125,9.753550052642822,1404.479736328125,1143.647607421875,1972563.3297563195
0.528,1504.7998046875,7.8805341720581055,1504.7998046875,1304.15966796875,2264422.452187538
0.529,1605.11962890625,7.195573568344116,1605.11962890625,1404.4796875,2576409.0231001377
0.53,1705.439453125,6.510612964630127,1705.439453125,1504.799658203125,2908523.728275299
0.531,1805.75927734375,5.825652360916138,1805.75927734375,1605.119580078125,3260766.567713022
0.532,1906.0791015625,5.140691757202148,1906.0791015625,1705.439453125,3633137.541413307
0.533,2207.039306640625,6.2011425495147705,2207.039306640625,1845.887353515625,4871022.501056731
